225   SnTe   mp-num    N_points: 5000 

         energy                dos          total_dos 

     -3.9998000           1.1810000         14.9700000     
     -3.9988000           1.1820000         14.9700000     
     -3.9968000           1.1840000         14.9700000     
     -3.9948000           1.1860000         14.9700000     
     -3.9938000           1.1870000         14.9700000     
     -3.9918000           1.1880000         14.9800000     
     -3.9908000           1.1900000         14.9800000     
     -3.9888000           1.1910000         14.9800000     
     -3.9868000           1.1930000         14.9800000     
     -3.9858000           1.1940000         14.9800000     
     -3.9838000           1.1960000         14.9900000     
     -3.9828000           1.1970000         14.9900000     
     -3.9808000           1.1980000         14.9900000     
     -3.9788000           1.2000000         14.9900000     
     -3.9778000           1.2010000         14.9900000     
     -3.9758000           1.2030000         14.9900000     
     -3.9748000           1.2050000         15.0000000     
     -3.9728000           1.2060000         15.0000000     
     -3.9708000           1.2080000         15.0000000     
     -3.9698000           1.2090000         15.0000000     
     -3.9678000           1.2110000         15.0000000     
     -3.9668000           1.2130000         15.0100000     
     -3.9648000           1.2150000         15.0100000     
     -3.9628000           1.2170000         15.0100000     
     -3.9618000           1.2190000         15.0100000     
     -3.9598000           1.2210000         15.0100000     
     -3.9588000           1.2230000         15.0200000     
     -3.9568000           1.2250000         15.0200000     
     -3.9548000           1.2270000         15.0200000     
     -3.9538000           1.2290000         15.0200000     
     -3.9518000           1.2300000         15.0200000     
     -3.9508000           1.2320000         15.0300000     
     -3.9488000           1.2340000         15.0300000     
     -3.9468000           1.2370000         15.0300000     
     -3.9458000           1.2390000         15.0300000     
     -3.9438000           1.2410000         15.0300000     
     -3.9428000           1.2420000         15.0400000     
     -3.9408000           1.2440000         15.0400000     
     -3.9388000           1.2460000         15.0400000     
     -3.9378000           1.2480000         15.0400000     
     -3.9358000           1.2500000         15.0400000     
     -3.9348000           1.2520000         15.0500000     
     -3.9328000           1.2550000         15.0500000     
     -3.9308000           1.2570000         15.0500000     
     -3.9298000           1.2590000         15.0500000     
     -3.9278000           1.2610000         15.0500000     
     -3.9268000           1.2630000         15.0600000     
     -3.9248000           1.2660000         15.0600000     
     -3.9228000           1.2680000         15.0600000     
     -3.9218000           1.2700000         15.0600000     
     -3.9198000           1.2720000         15.0600000     
     -3.9188000           1.2750000         15.0700000     
     -3.9168000           1.2770000         15.0700000     
     -3.9148000           1.2790000         15.0700000     
     -3.9138000           1.2820000         15.0700000     
     -3.9118000           1.2840000         15.0700000     
     -3.9108000           1.2870000         15.0800000     
     -3.9088000           1.2900000         15.0800000     
     -3.9068000           1.2920000         15.0800000     
     -3.9058000           1.2950000         15.0800000     
     -3.9038000           1.2980000         15.0800000     
     -3.9028000           1.3010000         15.0900000     
     -3.9008000           1.3040000         15.0900000     
     -3.8988000           1.3070000         15.0900000     
     -3.8978000           1.3090000         15.0900000     
     -3.8958000           1.3120000         15.1000000     
     -3.8948000           1.3150000         15.1000000     
     -3.8928000           1.3170000         15.1000000     
     -3.8908000           1.3200000         15.1000000     
     -3.8898000           1.3220000         15.1000000     
     -3.8878000           1.3240000         15.1100000     
     -3.8868000           1.3260000         15.1100000     
     -3.8848000           1.3290000         15.1100000     
     -3.8828000           1.3320000         15.1100000     
     -3.8818000           1.3350000         15.1100000     
     -3.8798000           1.3380000         15.1200000     
     -3.8788000           1.3420000         15.1200000     
     -3.8768000           1.3510000         15.1200000     
     -3.8748000           1.3630000         15.1200000     
     -3.8738000           1.3760000         15.1300000     
     -3.8718000           1.3900000         15.1300000     
     -3.8708000           1.4050000         15.1300000     
     -3.8688000           1.4210000         15.1300000     
     -3.8668000           1.4350000         15.1300000     
     -3.8658000           1.4460000         15.1400000     
     -3.8638000           1.4560000         15.1400000     
     -3.8628000           1.4620000         15.1400000     
     -3.8608000           1.4670000         15.1400000     
     -3.8588000           1.4760000         15.1500000     
     -3.8578000           1.4870000         15.1500000     
     -3.8558000           1.4990000         15.1500000     
     -3.8548000           1.5110000         15.1500000     
     -3.8528000           1.5240000         15.1600000     
     -3.8508000           1.5380000         15.1600000     
     -3.8498000           1.5510000         15.1600000     
     -3.8478000           1.5660000         15.1600000     
     -3.8468000           1.5810000         15.1700000     
     -3.8448000           1.5970000         15.1700000     
     -3.8428000           1.6150000         15.1700000     
     -3.8418000           1.6350000         15.1700000     
     -3.8398000           1.7380000         15.1800000     
     -3.8388000           1.6530000         15.1800000     
     -3.8368000           1.6740000         15.1800000     
     -3.8348000           1.7030000         15.1800000     
     -3.8338000           1.7330000         15.1900000     
     -3.8318000           1.7380000         15.1900000     
     -3.8308000           1.7180000         15.1900000     
     -3.8288000           1.6880000         15.1900000     
     -3.8268000           1.6710000         15.2000000     
     -3.8258000           1.6650000         15.2000000     
     -3.8238000           1.6640000         15.2000000     
     -3.8228000           1.6630000         15.2100000     
     -3.8208000           1.6670000         15.2100000     
     -3.8188000           1.6690000         15.2100000     
     -3.8178000           1.6730000         15.2100000     
     -3.8158000           1.6790000         15.2200000     
     -3.8148000           1.6870000         15.2200000     
     -3.8128000           1.7000000         15.2200000     
     -3.8108000           1.7100000         15.2200000     
     -3.8098000           1.7110000         15.2300000     
     -3.8078000           1.7040000         15.2300000     
     -3.8068000           1.6930000         15.2300000     
     -3.8048000           1.6830000         15.2400000     
     -3.8028000           1.6750000         15.2400000     
     -3.8018000           1.6680000         15.2400000     
     -3.7998000           1.6630000         15.2400000     
     -3.7988000           1.6590000         15.2500000     
     -3.7968000           1.6570000         15.2500000     
     -3.7948000           1.6560000         15.2500000     
     -3.7938000           1.6550000         15.2500000     
     -3.7918000           1.6540000         15.2600000     
     -3.7908000           1.6540000         15.2600000     
     -3.7888000           1.6540000         15.2600000     
     -3.7868000           1.6540000         15.2600000     
     -3.7858000           1.6550000         15.2700000     
     -3.7838000           1.6560000         15.2700000     
     -3.7828000           1.6580000         15.2700000     
     -3.7808000           1.6590000         15.2800000     
     -3.7788000           1.6600000         15.2800000     
     -3.7778000           1.6620000         15.2800000     
     -3.7758000           1.6630000         15.2800000     
     -3.7748000           1.6700000         15.2900000     
     -3.7728000           1.6740000         15.2900000     
     -3.7708000           1.6720000         15.2900000     
     -3.7698000           1.6650000         15.2900000     
     -3.7678000           1.6590000         15.3000000     
     -3.7668000           1.6530000         15.3000000     
     -3.7648000           1.6490000         15.3000000     
     -3.7628000           1.6460000         15.3000000     
     -3.7618000           1.6440000         15.3100000     
     -3.7598000           1.6420000         15.3100000     
     -3.7588000           1.6410000         15.3100000     
     -3.7568000           1.6400000         15.3100000     
     -3.7548000           1.6390000         15.3200000     
     -3.7538000           1.6390000         15.3200000     
     -3.7518000           1.6390000         15.3200000     
     -3.7508000           1.6390000         15.3300000     
     -3.7488000           1.6380000         15.3300000     
     -3.7468000           1.6380000         15.3300000     
     -3.7458000           1.6370000         15.3300000     
     -3.7438000           1.6370000         15.3400000     
     -3.7428000           1.6370000         15.3400000     
     -3.7408000           1.6360000         15.3400000     
     -3.7388000           1.6360000         15.3400000     
     -3.7378000           1.6350000         15.3500000     
     -3.7358000           1.6350000         15.3500000     
     -3.7348000           1.6350000         15.3500000     
     -3.7328000           1.6340000         15.3500000     
     -3.7308000           1.6330000         15.3600000     
     -3.7298000           1.6330000         15.3600000     
     -3.7278000           1.6320000         15.3600000     
     -3.7268000           1.6310000         15.3600000     
     -3.7248000           1.6300000         15.3700000     
     -3.7228000           1.6280000         15.3700000     
     -3.7218000           1.6270000         15.3700000     
     -3.7198000           1.6220000         15.3700000     
     -3.7188000           1.6160000         15.3800000     
     -3.7168000           1.6150000         15.3800000     
     -3.7148000           1.6140000         15.3800000     
     -3.7138000           1.6110000         15.3900000     
     -3.7118000           1.6090000         15.3900000     
     -3.7108000           1.6070000         15.3900000     
     -3.7088000           1.6050000         15.3900000     
     -3.7068000           1.6040000         15.4000000     
     -3.7058000           1.6030000         15.4000000     
     -3.7038000           1.6020000         15.4000000     
     -3.7028000           1.6010000         15.4000000     
     -3.7008000           1.6010000         15.4100000     
     -3.6988000           1.6010000         15.4100000     
     -3.6978000           1.6020000         15.4100000     
     -3.6958000           1.6030000         15.4100000     
     -3.6948000           1.6030000         15.4200000     
     -3.6928000           1.6030000         15.4200000     
     -3.6908000           1.6030000         15.4200000     
     -3.6898000           1.6040000         15.4200000     
     -3.6878000           1.6040000         15.4300000     
     -3.6868000           1.6050000         15.4300000     
     -3.6848000           1.6050000         15.4300000     
     -3.6828000           1.6050000         15.4300000     
     -3.6818000           1.6060000         15.4400000     
     -3.6798000           1.6060000         15.4400000     
     -3.6788000           1.6050000         15.4400000     
     -3.6768000           1.6050000         15.4400000     
     -3.6748000           1.6050000         15.4500000     
     -3.6738000           1.6040000         15.4500000     
     -3.6718000           1.6040000         15.4500000     
     -3.6708000           1.6030000         15.4500000     
     -3.6688000           1.6030000         15.4600000     
     -3.6668000           1.6020000         15.4600000     
     -3.6658000           1.6010000         15.4600000     
     -3.6638000           1.6000000         15.4600000     
     -3.6628000           1.5990000         15.4700000     
     -3.6608000           1.5980000         15.4700000     
     -3.6588000           1.5960000         15.4700000     
     -3.6578000           1.5950000         15.4800000     
     -3.6558000           1.5930000         15.4800000     
     -3.6548000           1.5910000         15.4800000     
     -3.6528000           1.5880000         15.4800000     
     -3.6508000           1.5840000         15.4900000     
     -3.6498000           1.5810000         15.4900000     
     -3.6478000           1.5800000         15.4900000     
     -3.6468000           1.5790000         15.4900000     
     -3.6448000           1.5790000         15.5000000     
     -3.6428000           1.5790000         15.5000000     
     -3.6418000           1.5780000         15.5000000     
     -3.6398000           1.5780000         15.5000000     
     -3.6388000           1.5770000         15.5100000     
     -3.6368000           1.5770000         15.5100000     
     -3.6348000           1.5760000         15.5100000     
     -3.6338000           1.5750000         15.5100000     
     -3.6318000           1.5740000         15.5200000     
     -3.6308000           1.5730000         15.5200000     
     -3.6288000           1.5720000         15.5200000     
     -3.6268000           1.5720000         15.5200000     
     -3.6258000           1.5710000         15.5300000     
     -3.6238000           1.5700000         15.5300000     
     -3.6228000           1.5700000         15.5300000     
     -3.6208000           1.5690000         15.5300000     
     -3.6188000           1.5690000         15.5400000     
     -3.6178000           1.5680000         15.5400000     
     -3.6158000           1.5680000         15.5400000     
     -3.6148000           1.5670000         15.5400000     
     -3.6128000           1.5670000         15.5500000     
     -3.6108000           1.5670000         15.5500000     
     -3.6098000           1.5660000         15.5500000     
     -3.6078000           1.5660000         15.5500000     
     -3.6068000           1.5660000         15.5600000     
     -3.6048000           1.5660000         15.5600000     
     -3.6028000           1.5650000         15.5600000     
     -3.6018000           1.5650000         15.5600000     
     -3.5998000           1.5640000         15.5700000     
     -3.5988000           1.5640000         15.5700000     
     -3.5968000           1.5630000         15.5700000     
     -3.5948000           1.5630000         15.5700000     
     -3.5938000           1.5620000         15.5800000     
     -3.5918000           1.5610000         15.5800000     
     -3.5908000           1.5600000         15.5800000     
     -3.5888000           1.5590000         15.5800000     
     -3.5868000           1.5580000         15.5900000     
     -3.5858000           1.5570000         15.5900000     
     -3.5838000           1.5560000         15.5900000     
     -3.5828000           1.5550000         15.5900000     
     -3.5808000           1.5530000         15.6000000     
     -3.5788000           1.5520000         15.6000000     
     -3.5778000           1.5510000         15.6000000     
     -3.5758000           1.5500000         15.6000000     
     -3.5748000           1.5490000         15.6100000     
     -3.5728000           1.5480000         15.6100000     
     -3.5708000           1.5470000         15.6100000     
     -3.5698000           1.5470000         15.6100000     
     -3.5678000           1.5470000         15.6200000     
     -3.5668000           1.5460000         15.6200000     
     -3.5648000           1.5450000         15.6200000     
     -3.5628000           1.5440000         15.6200000     
     -3.5618000           1.5440000         15.6300000     
     -3.5598000           1.5430000         15.6300000     
     -3.5588000           1.5420000         15.6300000     
     -3.5568000           1.5420000         15.6300000     
     -3.5548000           1.5410000         15.6400000     
     -3.5538000           1.5400000         15.6400000     
     -3.5518000           1.5390000         15.6400000     
     -3.5508000           1.5390000         15.6400000     
     -3.5488000           1.5390000         15.6500000     
     -3.5468000           1.5380000         15.6500000     
     -3.5458000           1.5380000         15.6500000     
     -3.5438000           1.5380000         15.6500000     
     -3.5428000           1.5370000         15.6600000     
     -3.5408000           1.5370000         15.6600000     
     -3.5388000           1.5370000         15.6600000     
     -3.5378000           1.5360000         15.6600000     
     -3.5358000           1.5360000         15.6600000     
     -3.5348000           1.5360000         15.6700000     
     -3.5328000           1.5350000         15.6700000     
     -3.5308000           1.5350000         15.6700000     
     -3.5298000           1.5340000         15.6700000     
     -3.5278000           1.5340000         15.6800000     
     -3.5268000           1.5330000         15.6800000     
     -3.5248000           1.5330000         15.6800000     
     -3.5228000           1.5320000         15.6800000     
     -3.5218000           1.5320000         15.6900000     
     -3.5198000           1.5310000         15.6900000     
     -3.5188000           1.5310000         15.6900000     
     -3.5168000           1.5300000         15.6900000     
     -3.5148000           1.5300000         15.7000000     
     -3.5138000           1.5290000         15.7000000     
     -3.5118000           1.5290000         15.7000000     
     -3.5108000           1.5280000         15.7000000     
     -3.5088000           1.5270000         15.7100000     
     -3.5068000           1.5270000         15.7100000     
     -3.5058000           1.5260000         15.7100000     
     -3.5038000           1.5250000         15.7100000     
     -3.5028000           1.5240000         15.7200000     
     -3.5008000           1.5240000         15.7200000     
     -3.4988000           1.5230000         15.7200000     
     -3.4978000           1.5220000         15.7200000     
     -3.4958000           1.5210000         15.7300000     
     -3.4938000           1.5200000         15.7300000     
     -3.4928000           1.5190000         15.7300000     
     -3.4908000           1.5180000         15.7300000     
     -3.4898000           1.5170000         15.7400000     
     -3.4878000           1.5160000         15.7400000     
     -3.4858000           1.5150000         15.7400000     
     -3.4848000           1.5140000         15.7400000     
     -3.4828000           1.5130000         15.7500000     
     -3.4818000           1.5120000         15.7500000     
     -3.4798000           1.5110000         15.7500000     
     -3.4778000           1.5090000         15.7500000     
     -3.4768000           1.5080000         15.7600000     
     -3.4748000           1.5070000         15.7600000     
     -3.4738000           1.5060000         15.7600000     
     -3.4718000           1.5050000         15.7600000     
